1,3,1201,4008
1,4,4009,6816
1,3,6821,9628
1,4,9631,12438
1,3,12443,15250
1,4,15252,18059
1,6,18063,20870
1,3,20873,23680
1,4,23684,26491
1,3,26494,29301
1,4,29304,32111
1,3,32115,34922
1,4,34925,37732
1,6,37736,40543
1,3,40546,43353
1,4,43356,46163
1,3,46167,48974
1,4,48977,51784
1,3,51788,54595
1,4,54598,57405
1,3,57409,60216
1,4,60218,63025
2,3,64226,67036
2,4,67037,69847
2,3,69847,72657
2,4,72657,75467
2,3,75468,78278
2,4,78278,81088
2,6,81089,83899
2,3,83899,86709
2,4,86709,89519
2,3,89520,92330
2,4,92330,95140
2,3,95141,97951
2,4,97951,1.0076e+05
2,6,1.0076e+05,1.0357e+05
2,3,1.0357e+05,1.0638e+05
2,4,1.0638e+05,1.0919e+05
2,3,1.0919e+05,1.12e+05
2,4,1.12e+05,1.1481e+05
2,3,1.1481e+05,1.1762e+05
2,4,1.1762e+05,1.2043e+05
2,3,1.2043e+05,1.2324e+05
2,4,1.2324e+05,1.2605e+05
3,3,1.2725e+05,1.3006e+05
3,4,1.3006e+05,1.3287e+05
3,3,1.3287e+05,1.3568e+05
3,4,1.3568e+05,1.3849e+05
3,3,1.3849e+05,1.413e+05
3,4,1.413e+05,1.4411e+05
3,6,1.4411e+05,1.4692e+05
3,3,1.4692e+05,1.4973e+05
3,4,1.4973e+05,1.5254e+05
3,3,1.5255e+05,1.5536e+05
3,4,1.5536e+05,1.5817e+05
3,3,1.5817e+05,1.6098e+05
3,4,1.6098e+05,1.6379e+05
3,6,1.6379e+05,1.666e+05
3,3,1.666e+05,1.6941e+05
3,4,1.6941e+05,1.7222e+05
3,3,1.7222e+05,1.7503e+05
3,4,1.7503e+05,1.7784e+05
3,3,1.7784e+05,1.8065e+05
3,4,1.8065e+05,1.8346e+05
3,3,1.8346e+05,1.8627e+05
3,4,1.8627e+05,1.8908e+05
4,3,1.9028e+05,1.9309e+05
4,4,1.9309e+05,1.959e+05
4,3,1.959e+05,1.9871e+05
4,4,1.9871e+05,2.0152e+05
4,3,2.0152e+05,2.0433e+05
4,4,2.0433e+05,2.0714e+05
4,6,2.0714e+05,2.0995e+05
4,3,2.0995e+05,2.1276e+05
4,4,2.1276e+05,2.1557e+05
4,3,2.1557e+05,2.1838e+05
4,4,2.1838e+05,2.2119e+05
4,3,2.2119e+05,2.24e+05
4,4,2.24e+05,2.2681e+05
4,6,2.2681e+05,2.2962e+05
4,3,2.2962e+05,2.3243e+05
4,4,2.3243e+05,2.3524e+05
4,3,2.3524e+05,2.3805e+05
4,4,2.3805e+05,2.4086e+05
4,3,2.4086e+05,2.4367e+05
4,4,2.4368e+05,2.4649e+05
4,3,2.4648e+05,2.4929e+05
4,4,2.493e+05,2.5211e+05
5,3,2.533e+05,2.5611e+05
5,4,2.5611e+05,2.5892e+05
5,3,2.5892e+05,2.6173e+05
5,4,2.6173e+05,2.6454e+05
5,3,2.6454e+05,2.6735e+05
5,4,2.6736e+05,2.7017e+05
5,6,2.7017e+05,2.7298e+05
5,3,2.7298e+05,2.7579e+05
5,4,2.7579e+05,2.786e+05
5,3,2.786e+05,2.8141e+05
5,4,2.8141e+05,2.8422e+05
5,3,2.8422e+05,2.8703e+05
5,4,2.8703e+05,2.8984e+05
5,6,2.8984e+05,2.9265e+05
5,3,2.9265e+05,2.9546e+05
5,4,2.9546e+05,2.9827e+05
5,3,2.9827e+05,3.0108e+05
5,4,3.0108e+05,3.0389e+05
5,3,3.0389e+05,3.067e+05
5,4,3.067e+05,3.0951e+05
5,3,3.0951e+05,3.1232e+05
5,4,3.1232e+05,3.1513e+05
6,3,3.1633e+05,3.1914e+05
6,4,3.1914e+05,3.2195e+05
6,3,3.2195e+05,3.2476e+05
6,4,3.2476e+05,3.2757e+05
6,3,3.2757e+05,3.3038e+05
6,4,3.3038e+05,3.3319e+05
6,6,3.3319e+05,3.36e+05
6,3,3.36e+05,3.3881e+05
6,4,3.3881e+05,3.4162e+05
6,3,3.4162e+05,3.4443e+05
6,4,3.4443e+05,3.4724e+05
6,3,3.4724e+05,3.5005e+05
6,4,3.5005e+05,3.5286e+05
6,6,3.5286e+05,3.5567e+05
6,3,3.5567e+05,3.5848e+05
6,4,3.5848e+05,3.6129e+05
6,3,3.6129e+05,3.641e+05
6,4,3.641e+05,3.6691e+05
6,3,3.6691e+05,3.6972e+05
6,4,3.6972e+05,3.7253e+05
6,3,3.7254e+05,3.7535e+05
6,4,3.7535e+05,3.7816e+05
7,3,3.7935e+05,3.8216e+05
7,4,3.8216e+05,3.8497e+05
7,3,3.8497e+05,3.8778e+05
7,4,3.8778e+05,3.9059e+05
7,3,3.9059e+05,3.934e+05
7,4,3.934e+05,3.9621e+05
7,6,3.9621e+05,3.9902e+05
7,3,3.9902e+05,4.0183e+05
7,4,4.0183e+05,4.0464e+05
7,3,4.0464e+05,4.0745e+05
7,4,4.0746e+05,4.1027e+05
7,3,4.1027e+05,4.1308e+05
7,4,4.1308e+05,4.1589e+05
7,6,4.1589e+05,4.187e+05
7,3,4.187e+05,4.2151e+05
7,4,4.2151e+05,4.2432e+05
7,3,4.2432e+05,4.2713e+05
7,4,4.2713e+05,4.2994e+05
7,3,4.2994e+05,4.3275e+05
7,4,4.3275e+05,4.3556e+05
7,3,4.3556e+05,4.3837e+05
7,4,4.3837e+05,4.4118e+05
8,3,4.4238e+05,4.4519e+05
8,4,4.4519e+05,4.48e+05
8,3,4.48e+05,4.5081e+05
8,4,4.5081e+05,4.5362e+05
8,3,4.5362e+05,4.5643e+05
8,4,4.5643e+05,4.5924e+05
8,6,4.5924e+05,4.6205e+05
8,3,4.6205e+05,4.6486e+05
8,4,4.6486e+05,4.6767e+05
8,3,4.6767e+05,4.7048e+05
8,4,4.7048e+05,4.7329e+05
8,3,4.7329e+05,4.761e+05
8,4,4.761e+05,4.7891e+05
8,6,4.7891e+05,4.8172e+05
8,3,4.8172e+05,4.8453e+05
8,4,4.8453e+05,4.8734e+05
8,3,4.8734e+05,4.9015e+05
8,4,4.9015e+05,4.9296e+05
8,3,4.9296e+05,4.9577e+05
8,4,4.9577e+05,4.9858e+05
8,3,4.9859e+05,5.014e+05
8,4,5.014e+05,5.0421e+05
9,3,5.054e+05,5.0821e+05
9,4,5.0821e+05,5.1102e+05
9,3,5.1102e+05,5.1383e+05
9,4,5.1383e+05,5.1664e+05
9,3,5.1664e+05,5.1945e+05
9,4,5.1945e+05,5.2226e+05
9,6,5.2226e+05,5.2507e+05
9,3,5.2508e+05,5.2789e+05
9,4,5.2788e+05,5.3069e+05
9,3,5.3069e+05,5.335e+05
9,4,5.3351e+05,5.3632e+05
9,3,5.3632e+05,5.3913e+05
9,4,5.3913e+05,5.4194e+05
9,6,5.4194e+05,5.4475e+05
9,3,5.4475e+05,5.4756e+05
9,4,5.4756e+05,5.5037e+05
9,3,5.5037e+05,5.5318e+05
9,4,5.5318e+05,5.5599e+05
9,3,5.5599e+05,5.588e+05
9,4,5.588e+05,5.6161e+05
9,3,5.6161e+05,5.6442e+05
9,4,5.6442e+05,5.6723e+05
10,3,5.6843e+05,5.7124e+05
10,4,5.7124e+05,5.7405e+05
10,3,5.7405e+05,5.7686e+05
10,4,5.7686e+05,5.7967e+05
10,3,5.7967e+05,5.8248e+05
10,4,5.8248e+05,5.8529e+05
10,6,5.8529e+05,5.881e+05
10,3,5.881e+05,5.9091e+05
10,4,5.9091e+05,5.9372e+05
10,3,5.9372e+05,5.9653e+05
10,4,5.9653e+05,5.9934e+05
10,3,5.9934e+05,6.0215e+05
10,4,6.0215e+05,6.0496e+05
10,6,6.0496e+05,6.0777e+05
10,3,6.0777e+05,6.1058e+05
10,4,6.1058e+05,6.1339e+05
10,3,6.1339e+05,6.162e+05
10,4,6.162e+05,6.1901e+05
10,3,6.1901e+05,6.2182e+05
10,4,6.2183e+05,6.2464e+05
10,3,6.2464e+05,6.2745e+05
10,4,6.2745e+05,6.3026e+05
1,1,6.3145e+05,6.3426e+05
1,2,6.3426e+05,6.3707e+05
1,1,6.3707e+05,6.3988e+05
1,2,6.3988e+05,6.4269e+05
1,1,6.4269e+05,6.455e+05
1,2,6.455e+05,6.4831e+05
1,1,6.4831e+05,6.5112e+05
1,5,6.5112e+05,6.5393e+05
1,2,6.5393e+05,6.5674e+05
1,1,6.5674e+05,6.5955e+05
1,2,6.5956e+05,6.6236e+05
1,1,6.6236e+05,6.6517e+05
1,2,6.6518e+05,6.6798e+05
1,1,6.6799e+05,6.7079e+05
1,5,6.708e+05,6.7361e+05
1,2,6.7361e+05,6.7641e+05
1,1,6.7642e+05,6.7922e+05
1,2,6.7923e+05,6.8204e+05
1,1,6.8204e+05,6.8485e+05
1,2,6.8485e+05,6.8766e+05
1,1,6.8766e+05,6.9047e+05
1,2,6.9047e+05,6.9328e+05
2,1,6.9448e+05,6.9729e+05
2,2,6.9729e+05,7.001e+05
2,1,7.001e+05,7.0291e+05
2,2,7.0291e+05,7.0572e+05
2,1,7.0572e+05,7.0853e+05
2,2,7.0853e+05,7.1134e+05
2,1,7.1134e+05,7.1415e+05
2,5,7.1415e+05,7.1696e+05
2,2,7.1696e+05,7.1977e+05
2,1,7.1977e+05,7.2258e+05
2,2,7.2258e+05,7.2539e+05
2,1,7.2539e+05,7.282e+05
2,2,7.282e+05,7.3101e+05
2,1,7.3101e+05,7.3382e+05
2,5,7.3382e+05,7.3663e+05
2,2,7.3663e+05,7.3944e+05
2,1,7.3944e+05,7.4225e+05
2,2,7.4225e+05,7.4506e+05
2,1,7.4506e+05,7.4787e+05
2,2,7.4787e+05,7.5068e+05
2,1,7.5069e+05,7.535e+05
2,2,7.535e+05,7.5631e+05
3,1,7.575e+05,7.6031e+05
3,2,7.6031e+05,7.6312e+05
3,1,7.6312e+05,7.6593e+05
3,2,7.6593e+05,7.6874e+05
3,1,7.6874e+05,7.7155e+05
3,2,7.7155e+05,7.7436e+05
3,1,7.7436e+05,7.7717e+05
3,5,7.7717e+05,7.7998e+05
3,2,7.7999e+05,7.828e+05
3,1,7.828e+05,7.8561e+05
3,2,7.8561e+05,7.8842e+05
3,1,7.8842e+05,7.9123e+05
3,2,7.9123e+05,7.9404e+05
3,1,7.9404e+05,7.9685e+05
3,5,7.9685e+05,7.9966e+05
3,2,7.9966e+05,8.0247e+05
3,1,8.0247e+05,8.0528e+05
3,2,8.0528e+05,8.0809e+05
3,1,8.0809e+05,8.109e+05
3,2,8.109e+05,8.1371e+05
3,1,8.1371e+05,8.1652e+05
3,2,8.1652e+05,8.1933e+05
4,1,8.2053e+05,8.2334e+05
4,2,8.2334e+05,8.2615e+05
4,1,8.2615e+05,8.2896e+05
4,2,8.2896e+05,8.3177e+05
4,1,8.3177e+05,8.3458e+05
4,2,8.3458e+05,8.3739e+05
4,1,8.3739e+05,8.402e+05
4,5,8.402e+05,8.4301e+05
4,2,8.4301e+05,8.4582e+05
4,1,8.4582e+05,8.4863e+05
4,2,8.4863e+05,8.5144e+05
4,1,8.5144e+05,8.5425e+05
4,2,8.5425e+05,8.5706e+05
4,1,8.5706e+05,8.5987e+05
4,5,8.5987e+05,8.6268e+05
4,2,8.6268e+05,8.6549e+05
4,1,8.6549e+05,8.683e+05
4,2,8.683e+05,8.7111e+05
4,1,8.7111e+05,8.7392e+05
4,2,8.7393e+05,8.7674e+05
4,1,8.7673e+05,8.7954e+05
4,2,8.7955e+05,8.8236e+05
5,1,8.8355e+05,8.8636e+05
5,2,8.8636e+05,8.8917e+05
5,1,8.8917e+05,8.9198e+05
5,2,8.9198e+05,8.9479e+05
5,1,8.9479e+05,8.976e+05
5,2,8.976e+05,9.0041e+05
5,1,9.0041e+05,9.0322e+05
5,5,9.0322e+05,9.0603e+05
5,2,9.0603e+05,9.0884e+05
5,1,9.0884e+05,9.1165e+05
5,2,9.1166e+05,9.1447e+05
5,1,9.1447e+05,9.1728e+05
5,2,9.1728e+05,9.2009e+05
5,1,9.2009e+05,9.229e+05
5,5,9.229e+05,9.2571e+05
5,2,9.2571e+05,9.2852e+05
5,1,9.2852e+05,9.3133e+05
5,2,9.3133e+05,9.3414e+05
5,1,9.3414e+05,9.3695e+05
5,2,9.3695e+05,9.3976e+05
5,1,9.3976e+05,9.4257e+05
5,2,9.4257e+05,9.4538e+05
6,1,9.4658e+05,9.4939e+05
6,2,9.4939e+05,9.522e+05
6,1,9.522e+05,9.5501e+05
6,2,9.5501e+05,9.5782e+05
6,1,9.5782e+05,9.6063e+05
6,2,9.6063e+05,9.6344e+05
6,1,9.6344e+05,9.6625e+05
6,5,9.6625e+05,9.6906e+05
6,2,9.6906e+05,9.7187e+05
6,1,9.7187e+05,9.7468e+05
6,2,9.7468e+05,9.7749e+05
6,1,9.7749e+05,9.803e+05
6,2,9.803e+05,9.8311e+05
6,1,9.8311e+05,9.8592e+05
6,5,9.8592e+05,9.8873e+05
6,2,9.8873e+05,9.9154e+05
6,1,9.9154e+05,9.9435e+05
6,2,9.9435e+05,9.9716e+05
6,1,9.9716e+05,9.9997e+05
6,2,9.9998e+05,1.0028e+06
6,1,1.0028e+06,1.0056e+06
6,2,1.0056e+06,1.0084e+06
7,1,1.0096e+06,1.0124e+06
7,2,1.0124e+06,1.0152e+06
7,1,1.0152e+06,1.018e+06
7,2,1.018e+06,1.0208e+06
7,1,1.0208e+06,1.0237e+06
7,2,1.0237e+06,1.0265e+06
7,1,1.0265e+06,1.0293e+06
7,5,1.0293e+06,1.0321e+06
7,2,1.0321e+06,1.0349e+06
7,1,1.0349e+06,1.0377e+06
7,2,1.0377e+06,1.0405e+06
7,1,1.0405e+06,1.0433e+06
7,2,1.0433e+06,1.0461e+06
7,1,1.0461e+06,1.0489e+06
7,5,1.0489e+06,1.0518e+06
7,2,1.0518e+06,1.0546e+06
7,1,1.0546e+06,1.0574e+06
7,2,1.0574e+06,1.0602e+06
7,1,1.0602e+06,1.063e+06
7,2,1.063e+06,1.0658e+06
7,1,1.0658e+06,1.0686e+06
7,2,1.0686e+06,1.0714e+06
8,1,1.0726e+06,1.0754e+06
8,2,1.0754e+06,1.0782e+06
8,1,1.0782e+06,1.0811e+06
8,2,1.0811e+06,1.0839e+06
8,1,1.0839e+06,1.0867e+06
8,2,1.0867e+06,1.0895e+06
8,1,1.0895e+06,1.0923e+06
8,5,1.0923e+06,1.0951e+06
8,2,1.0951e+06,1.0979e+06
8,1,1.0979e+06,1.1007e+06
8,2,1.1007e+06,1.1035e+06
8,1,1.1035e+06,1.1064e+06
8,2,1.1064e+06,1.1092e+06
8,1,1.1092e+06,1.112e+06
8,5,1.112e+06,1.1148e+06
8,2,1.1148e+06,1.1176e+06
8,1,1.1176e+06,1.1204e+06
8,2,1.1204e+06,1.1232e+06
8,1,1.1232e+06,1.126e+06
8,2,1.126e+06,1.1288e+06
8,1,1.1288e+06,1.1316e+06
8,2,1.1316e+06,1.1345e+06
9,1,1.1357e+06,1.1385e+06
9,2,1.1385e+06,1.1413e+06
9,1,1.1413e+06,1.1441e+06
9,2,1.1441e+06,1.1469e+06
9,1,1.1469e+06,1.1497e+06
9,2,1.1497e+06,1.1525e+06
9,1,1.1525e+06,1.1553e+06
9,5,1.1553e+06,1.1581e+06
9,2,1.1581e+06,1.1609e+06
9,1,1.1609e+06,1.1638e+06
9,2,1.1638e+06,1.1666e+06
9,1,1.1666e+06,1.1694e+06
9,2,1.1694e+06,1.1722e+06
9,1,1.1722e+06,1.175e+06
9,5,1.175e+06,1.1778e+06
9,2,1.1778e+06,1.1806e+06
9,1,1.1806e+06,1.1834e+06
9,2,1.1834e+06,1.1862e+06
9,1,1.1862e+06,1.189e+06
9,2,1.1891e+06,1.1919e+06
9,1,1.1919e+06,1.1947e+06
9,2,1.1947e+06,1.1975e+06
10,1,1.1987e+06,1.2015e+06
10,2,1.2015e+06,1.2043e+06
10,1,1.2043e+06,1.2071e+06
10,2,1.2071e+06,1.2099e+06
10,1,1.2099e+06,1.2127e+06
10,2,1.2127e+06,1.2155e+06
10,1,1.2155e+06,1.2183e+06
10,5,1.2183e+06,1.2212e+06
10,2,1.2212e+06,1.224e+06
10,1,1.224e+06,1.2268e+06
10,2,1.2268e+06,1.2296e+06
10,1,1.2296e+06,1.2324e+06
10,2,1.2324e+06,1.2352e+06
10,1,1.2352e+06,1.238e+06
10,5,1.238e+06,1.2408e+06
10,2,1.2408e+06,1.2436e+06
10,1,1.2436e+06,1.2465e+06
10,2,1.2465e+06,1.2493e+06
10,1,1.2493e+06,1.2521e+06
10,2,1.2521e+06,1.2549e+06
10,1,1.2549e+06,1.2577e+06
10,2,1.2577e+06,1.2605e+06
